vgs	Id(M1)
0.000000000000000e+00	2.686430e-11
1.000000000000000e-03	2.755906e-11
2.000000000000000e-03	2.827306e-11
3.000000000000000e-03	2.900683e-11
4.000000000000000e-03	2.976092e-11
5.000000000000000e-03	3.053589e-11
6.000000000000000e-03	3.133231e-11
7.000000000000000e-03	3.215079e-11
8.000000000000000e-03	3.299192e-11
9.000000000000001e-03	3.385634e-11
1.000000000000000e-02	3.474469e-11
1.100000000000000e-02	3.565763e-11
1.200000000000000e-02	3.659583e-11
1.300000000000000e-02	3.756000e-11
1.400000000000001e-02	3.855086e-11
1.500000000000001e-02	3.956913e-11
1.600000000000001e-02	4.061558e-11
1.700000000000001e-02	4.169098e-11
1.800000000000001e-02	4.279614e-11
1.900000000000001e-02	4.393188e-11
2.000000000000001e-02	4.509903e-11
2.100000000000001e-02	4.629846e-11
2.200000000000001e-02	4.753107e-11
2.300000000000001e-02	4.879778e-11
2.400000000000001e-02	5.009951e-11
2.500000000000002e-02	5.143725e-11
2.600000000000002e-02	5.281197e-11
2.700000000000002e-02	5.422471e-11
2.800000000000002e-02	5.567651e-11
2.900000000000002e-02	5.716844e-11
3.000000000000002e-02	5.870161e-11
3.100000000000002e-02	6.027717e-11
3.200000000000002e-02	6.189627e-11
3.300000000000002e-02	6.356012e-11
3.400000000000002e-02	6.526994e-11
3.500000000000002e-02	6.702702e-11
3.600000000000003e-02	6.883264e-11
3.700000000000003e-02	7.068815e-11
3.800000000000003e-02	7.259492e-11
3.900000000000003e-02	7.455436e-11
4.000000000000003e-02	7.656792e-11
4.100000000000003e-02	7.863709e-11
4.200000000000003e-02	8.076340e-11
4.300000000000003e-02	8.294843e-11
4.400000000000003e-02	8.519380e-11
4.500000000000003e-02	8.750115e-11
4.600000000000003e-02	8.987219e-11
4.700000000000003e-02	9.230869e-11
4.800000000000004e-02	9.481243e-11
4.900000000000004e-02	9.738527e-11
5.000000000000004e-02	1.000291e-10
5.100000000000004e-02	1.027459e-10
5.200000000000004e-02	1.055376e-10
5.300000000000004e-02	1.084064e-10
5.400000000000004e-02	1.113543e-10
5.500000000000004e-02	1.143835e-10
5.600000000000004e-02	1.174962e-10
5.700000000000004e-02	1.206947e-10
5.800000000000004e-02	1.239815e-10
5.900000000000005e-02	1.273588e-10
6.000000000000005e-02	1.308293e-10
6.100000000000005e-02	1.343954e-10
6.200000000000005e-02	1.380598e-10
6.300000000000004e-02	1.418251e-10
6.400000000000004e-02	1.456942e-10
6.500000000000004e-02	1.496699e-10
6.600000000000004e-02	1.537551e-10
6.700000000000005e-02	1.579529e-10
6.800000000000005e-02	1.622662e-10
6.900000000000005e-02	1.666983e-10
7.000000000000005e-02	1.712524e-10
7.100000000000005e-02	1.759318e-10
7.200000000000005e-02	1.807401e-10
7.300000000000005e-02	1.856807e-10
7.400000000000005e-02	1.907572e-10
7.500000000000005e-02	1.959735e-10
7.600000000000005e-02	2.013332e-10
7.700000000000005e-02	2.068403e-10
7.800000000000006e-02	2.124989e-10
7.900000000000006e-02	2.183130e-10
8.000000000000006e-02	2.242871e-10
8.100000000000006e-02	2.304253e-10
8.200000000000006e-02	2.367323e-10
8.300000000000006e-02	2.432125e-10
8.400000000000006e-02	2.498708e-10
8.500000000000006e-02	2.567121e-10
8.600000000000006e-02	2.637413e-10
8.700000000000006e-02	2.709634e-10
8.800000000000006e-02	2.783840e-10
8.900000000000007e-02	2.860082e-10
9.000000000000007e-02	2.938417e-10
9.100000000000007e-02	3.018902e-10
9.200000000000007e-02	3.101596e-10
9.300000000000007e-02	3.186558e-10
9.400000000000007e-02	3.273851e-10
9.500000000000007e-02	3.363538e-10
9.600000000000007e-02	3.455684e-10
9.700000000000007e-02	3.550357e-10
9.800000000000007e-02	3.647624e-10
9.900000000000007e-02	3.747557e-10
1.000000000000001e-01	3.850228e-10
1.010000000000001e-01	3.955712e-10
1.020000000000001e-01	4.064086e-10
1.030000000000001e-01	4.175426e-10
1.040000000000001e-01	4.289816e-10
1.050000000000001e-01	4.407336e-10
1.060000000000001e-01	4.528073e-10
1.070000000000001e-01	4.652113e-10
1.080000000000001e-01	4.779546e-10
1.090000000000001e-01	4.910465e-10
1.100000000000001e-01	5.044964e-10
1.110000000000001e-01	5.183139e-10
1.120000000000001e-01	5.325092e-10
1.130000000000001e-01	5.470923e-10
1.140000000000001e-01	5.620738e-10
1.150000000000001e-01	5.774646e-10
1.160000000000001e-01	5.932756e-10
1.170000000000001e-01	6.095183e-10
1.180000000000001e-01	6.262043e-10
1.190000000000001e-01	6.433456e-10
1.200000000000001e-01	6.609546e-10
1.210000000000001e-01	6.790438e-10
1.220000000000001e-01	6.976263e-10
1.230000000000001e-01	7.167154e-10
1.240000000000001e-01	7.363247e-10
1.250000000000001e-01	7.564683e-10
1.260000000000001e-01	7.771606e-10
1.270000000000001e-01	7.984164e-10
1.280000000000001e-01	8.202509e-10
1.290000000000001e-01	8.426797e-10
1.300000000000001e-01	8.657187e-10
1.310000000000001e-01	8.893845e-10
1.320000000000001e-01	9.136939e-10
1.330000000000001e-01	9.386641e-10
1.340000000000001e-01	9.643131e-10
1.350000000000001e-01	9.906589e-10
1.360000000000001e-01	1.017720e-09
1.370000000000001e-01	1.045517e-09
1.380000000000001e-01	1.074068e-09
1.390000000000001e-01	1.103393e-09
1.400000000000001e-01	1.133515e-09
1.410000000000001e-01	1.164453e-09
1.420000000000001e-01	1.196230e-09
1.430000000000001e-01	1.228869e-09
1.440000000000001e-01	1.262391e-09
1.450000000000001e-01	1.296822e-09
1.460000000000001e-01	1.332185e-09
1.470000000000001e-01	1.368506e-09
1.480000000000001e-01	1.405809e-09
1.490000000000001e-01	1.444121e-09
1.500000000000001e-01	1.483469e-09
1.510000000000001e-01	1.523881e-09
1.520000000000001e-01	1.565384e-09
1.530000000000001e-01	1.608009e-09
1.540000000000001e-01	1.651785e-09
1.550000000000001e-01	1.696742e-09
1.560000000000001e-01	1.742913e-09
1.570000000000001e-01	1.790328e-09
1.580000000000001e-01	1.839022e-09
1.590000000000001e-01	1.889029e-09
1.600000000000001e-01	1.940382e-09
1.610000000000001e-01	1.993119e-09
1.620000000000001e-01	2.047275e-09
1.630000000000001e-01	2.102888e-09
1.640000000000001e-01	2.159998e-09
1.650000000000001e-01	2.218642e-09
1.660000000000001e-01	2.278863e-09
1.670000000000001e-01	2.340701e-09
1.680000000000001e-01	2.404201e-09
1.690000000000001e-01	2.469404e-09
1.700000000000001e-01	2.536357e-09
1.710000000000001e-01	2.605105e-09
1.720000000000001e-01	2.675696e-09
1.730000000000001e-01	2.748178e-09
1.740000000000001e-01	2.822602e-09
1.750000000000001e-01	2.899018e-09
1.760000000000001e-01	2.977478e-09
1.770000000000001e-01	3.058037e-09
1.780000000000001e-01	3.140750e-09
1.790000000000001e-01	3.225672e-09
1.800000000000001e-01	3.312862e-09
1.810000000000001e-01	3.402380e-09
1.820000000000001e-01	3.494286e-09
1.830000000000001e-01	3.588643e-09
1.840000000000001e-01	3.685514e-09
1.850000000000001e-01	3.784967e-09
1.860000000000001e-01	3.887067e-09
1.870000000000001e-01	3.991885e-09
1.880000000000001e-01	4.099490e-09
1.890000000000001e-01	4.209956e-09
1.900000000000001e-01	4.323358e-09
1.910000000000001e-01	4.439770e-09
1.920000000000001e-01	4.559273e-09
1.930000000000001e-01	4.681945e-09
1.940000000000001e-01	4.807871e-09
1.950000000000001e-01	4.937132e-09
1.960000000000001e-01	5.069817e-09
1.970000000000001e-01	5.206014e-09
1.980000000000001e-01	5.345814e-09
1.990000000000001e-01	5.489309e-09
2.000000000000001e-01	5.636596e-09
2.010000000000002e-01	5.787772e-09
2.020000000000002e-01	5.942939e-09
2.030000000000002e-01	6.102197e-09
2.040000000000002e-01	6.265653e-09
2.050000000000002e-01	6.433416e-09
2.060000000000002e-01	6.605595e-09
2.070000000000002e-01	6.782304e-09
2.080000000000002e-01	6.963659e-09
2.090000000000002e-01	7.149780e-09
2.100000000000002e-01	7.340789e-09
2.110000000000002e-01	7.536811e-09
2.120000000000002e-01	7.737974e-09
2.130000000000002e-01	7.944409e-09
2.140000000000002e-01	8.156251e-09
2.150000000000002e-01	8.373639e-09
2.160000000000002e-01	8.596713e-09
2.170000000000002e-01	8.825618e-09
2.180000000000002e-01	9.060503e-09
2.190000000000002e-01	9.301519e-09
2.200000000000002e-01	9.548823e-09
2.210000000000002e-01	9.802574e-09
2.220000000000002e-01	1.006294e-08
2.230000000000002e-01	1.033007e-08
2.240000000000002e-01	1.060416e-08
2.250000000000002e-01	1.088538e-08
2.260000000000002e-01	1.117390e-08
2.270000000000002e-01	1.146991e-08
2.280000000000002e-01	1.177359e-08
2.290000000000002e-01	1.208515e-08
2.300000000000002e-01	1.240478e-08
2.310000000000002e-01	1.273268e-08
2.320000000000002e-01	1.306906e-08
2.330000000000002e-01	1.341414e-08
2.340000000000002e-01	1.376813e-08
2.350000000000002e-01	1.413125e-08
2.360000000000002e-01	1.450374e-08
2.370000000000002e-01	1.488582e-08
2.380000000000002e-01	1.527774e-08
2.390000000000002e-01	1.567974e-08
2.400000000000002e-01	1.609208e-08
2.410000000000002e-01	1.651501e-08
2.420000000000002e-01	1.694879e-08
2.430000000000002e-01	1.739370e-08
2.440000000000002e-01	1.785001e-08
2.450000000000002e-01	1.831800e-08
2.460000000000002e-01	1.879797e-08
2.470000000000002e-01	1.929020e-08
2.480000000000002e-01	1.979501e-08
2.490000000000002e-01	2.031270e-08
2.500000000000002e-01	2.084360e-08
2.510000000000002e-01	2.138802e-08
2.520000000000002e-01	2.194631e-08
2.530000000000002e-01	2.251880e-08
2.540000000000002e-01	2.310583e-08
2.550000000000002e-01	2.370778e-08
2.560000000000002e-01	2.432501e-08
2.570000000000002e-01	2.495788e-08
2.580000000000002e-01	2.560679e-08
2.590000000000002e-01	2.627212e-08
2.600000000000002e-01	2.695428e-08
2.610000000000002e-01	2.765368e-08
2.620000000000002e-01	2.837074e-08
2.630000000000002e-01	2.910589e-08
2.640000000000002e-01	2.985957e-08
2.650000000000002e-01	3.063223e-08
2.660000000000002e-01	3.142434e-08
2.670000000000002e-01	3.223636e-08
2.680000000000002e-01	3.306878e-08
2.690000000000002e-01	3.392210e-08
2.700000000000002e-01	3.479681e-08
2.710000000000002e-01	3.569345e-08
2.720000000000002e-01	3.661253e-08
2.730000000000002e-01	3.755460e-08
2.740000000000002e-01	3.852022e-08
2.750000000000002e-01	3.950995e-08
2.760000000000002e-01	4.052438e-08
2.770000000000002e-01	4.156410e-08
2.780000000000002e-01	4.262971e-08
2.790000000000002e-01	4.372185e-08
2.800000000000002e-01	4.484114e-08
2.810000000000002e-01	4.598824e-08
2.820000000000002e-01	4.716382e-08
2.830000000000002e-01	4.836856e-08
2.840000000000002e-01	4.960315e-08
2.850000000000002e-01	5.086831e-08
2.860000000000002e-01	5.216477e-08
2.870000000000002e-01	5.349328e-08
2.880000000000002e-01	5.485460e-08
2.890000000000002e-01	5.624951e-08
2.900000000000002e-01	5.767882e-08
2.910000000000002e-01	5.914334e-08
2.920000000000002e-01	6.064391e-08
2.930000000000002e-01	6.218139e-08
2.940000000000002e-01	6.375665e-08
2.950000000000002e-01	6.537059e-08
2.960000000000002e-01	6.702413e-08
2.970000000000002e-01	6.871820e-08
2.980000000000002e-01	7.045377e-08
2.990000000000002e-01	7.223181e-08
3.000000000000002e-01	7.405333e-08
3.010000000000002e-01	7.591935e-08
3.020000000000002e-01	7.783093e-08
3.030000000000002e-01	7.978914e-08
3.040000000000002e-01	8.179508e-08
3.050000000000002e-01	8.384987e-08
3.060000000000002e-01	8.595466e-08
3.070000000000002e-01	8.811063e-08
3.080000000000002e-01	9.031898e-08
3.090000000000002e-01	9.258094e-08
3.100000000000002e-01	9.489777e-08
3.110000000000002e-01	9.727075e-08
3.120000000000002e-01	9.970120e-08
3.130000000000002e-01	1.021905e-07
3.140000000000002e-01	1.047399e-07
3.150000000000002e-01	1.073509e-07
3.160000000000002e-01	1.100250e-07
3.170000000000002e-01	1.127636e-07
3.180000000000002e-01	1.155682e-07
3.190000000000002e-01	1.184403e-07
3.200000000000002e-01	1.213816e-07
3.210000000000002e-01	1.243936e-07
3.220000000000002e-01	1.274779e-07
3.230000000000002e-01	1.306363e-07
3.240000000000002e-01	1.338704e-07
3.250000000000002e-01	1.371821e-07
3.260000000000002e-01	1.405731e-07
3.270000000000002e-01	1.440453e-07
3.280000000000002e-01	1.476004e-07
3.290000000000002e-01	1.512406e-07
3.300000000000002e-01	1.549676e-07
3.310000000000002e-01	1.587835e-07
3.320000000000002e-01	1.626904e-07
3.330000000000002e-01	1.666903e-07
3.340000000000002e-01	1.707854e-07
3.350000000000002e-01	1.749779e-07
3.360000000000002e-01	1.792700e-07
3.370000000000002e-01	1.836640e-07
3.380000000000002e-01	1.881621e-07
3.390000000000002e-01	1.927669e-07
3.400000000000002e-01	1.974807e-07
3.410000000000002e-01	2.023059e-07
3.420000000000002e-01	2.072453e-07
3.430000000000002e-01	2.123012e-07
3.440000000000003e-01	2.174765e-07
3.450000000000003e-01	2.227737e-07
3.460000000000003e-01	2.281957e-07
3.470000000000003e-01	2.337452e-07
3.480000000000003e-01	2.394251e-07
3.490000000000003e-01	2.452385e-07
3.500000000000003e-01	2.511882e-07
3.510000000000003e-01	2.572773e-07
3.520000000000003e-01	2.635090e-07
3.530000000000003e-01	2.698864e-07
3.540000000000003e-01	2.764128e-07
3.550000000000003e-01	2.830916e-07
3.560000000000003e-01	2.899260e-07
3.570000000000003e-01	2.969196e-07
3.580000000000003e-01	3.040758e-07
3.590000000000003e-01	3.113983e-07
3.600000000000003e-01	3.188907e-07
3.610000000000003e-01	3.265568e-07
3.620000000000003e-01	3.344003e-07
3.630000000000003e-01	3.424252e-07
3.640000000000003e-01	3.506354e-07
3.650000000000003e-01	3.590349e-07
3.660000000000003e-01	3.676279e-07
3.670000000000003e-01	3.764185e-07
3.680000000000003e-01	3.854109e-07
3.690000000000003e-01	3.946097e-07
3.700000000000003e-01	4.040190e-07
3.710000000000003e-01	4.136436e-07
3.720000000000003e-01	4.234879e-07
3.730000000000003e-01	4.335566e-07
3.740000000000003e-01	4.438544e-07
3.750000000000003e-01	4.543863e-07
3.760000000000003e-01	4.651571e-07
3.770000000000003e-01	4.761718e-07
3.780000000000003e-01	4.874356e-07
3.790000000000003e-01	4.989535e-07
3.800000000000003e-01	5.107308e-07
3.810000000000003e-01	5.227730e-07
3.820000000000003e-01	5.350854e-07
3.830000000000003e-01	5.476736e-07
3.840000000000003e-01	5.605432e-07
3.850000000000003e-01	5.736999e-07
3.860000000000003e-01	5.871494e-07
3.870000000000003e-01	6.008977e-07
3.880000000000003e-01	6.149508e-07
3.890000000000003e-01	6.293147e-07
3.900000000000003e-01	6.439955e-07
3.910000000000003e-01	6.589995e-07
3.920000000000003e-01	6.743331e-07
3.930000000000003e-01	6.900027e-07
3.940000000000003e-01	7.060146e-07
3.950000000000003e-01	7.223757e-07
3.960000000000003e-01	7.390925e-07
3.970000000000003e-01	7.561719e-07
3.980000000000003e-01	7.736207e-07
3.990000000000003e-01	7.914459e-07
4.000000000000003e-01	8.096546e-07
4.010000000000003e-01	8.282537e-07
4.020000000000003e-01	8.472507e-07
4.030000000000003e-01	8.666528e-07
4.040000000000003e-01	8.864673e-07
4.050000000000003e-01	9.067018e-07
4.060000000000003e-01	9.273638e-07
4.070000000000003e-01	9.484610e-07
4.080000000000003e-01	9.700011e-07
4.090000000000003e-01	9.919919e-07
4.100000000000003e-01	1.014441e-06
4.110000000000003e-01	1.037357e-06
4.120000000000003e-01	1.060748e-06
4.130000000000003e-01	1.084621e-06
4.140000000000003e-01	1.108985e-06
4.150000000000003e-01	1.133848e-06
4.160000000000003e-01	1.159219e-06
4.170000000000003e-01	1.185105e-06
4.180000000000003e-01	1.211516e-06
4.190000000000003e-01	1.238460e-06
4.200000000000003e-01	1.265945e-06
4.210000000000003e-01	1.293980e-06
4.220000000000003e-01	1.322574e-06
4.230000000000003e-01	1.351736e-06
4.240000000000003e-01	1.381474e-06
4.250000000000003e-01	1.411797e-06
4.260000000000003e-01	1.442715e-06
4.270000000000003e-01	1.474236e-06
4.280000000000003e-01	1.506369e-06
4.290000000000003e-01	1.539124e-06
4.300000000000003e-01	1.572508e-06
4.310000000000003e-01	1.606533e-06
4.320000000000003e-01	1.641206e-06
4.330000000000003e-01	1.676537e-06
4.340000000000003e-01	1.712535e-06
4.350000000000003e-01	1.749210e-06
4.360000000000003e-01	1.786571e-06
4.370000000000003e-01	1.824626e-06
4.380000000000003e-01	1.863386e-06
4.390000000000003e-01	1.902860e-06
4.400000000000003e-01	1.943057e-06
4.410000000000003e-01	1.983986e-06
4.420000000000003e-01	2.025657e-06
4.430000000000003e-01	2.068079e-06
4.440000000000003e-01	2.111262e-06
4.450000000000003e-01	2.155215e-06
4.460000000000003e-01	2.199947e-06
4.470000000000003e-01	2.245468e-06
4.480000000000003e-01	2.291787e-06
4.490000000000003e-01	2.338913e-06
4.500000000000003e-01	2.386855e-06
4.510000000000003e-01	2.435624e-06
4.520000000000003e-01	2.485228e-06
4.530000000000003e-01	2.535676e-06
4.540000000000003e-01	2.586977e-06
4.550000000000003e-01	2.639142e-06
4.560000000000003e-01	2.692178e-06
4.570000000000004e-01	2.746095e-06
4.580000000000004e-01	2.800902e-06
4.590000000000004e-01	2.856608e-06
4.600000000000004e-01	2.913222e-06
4.610000000000004e-01	2.970752e-06
4.620000000000004e-01	3.029208e-06
4.630000000000004e-01	3.088598e-06
4.640000000000004e-01	3.148931e-06
4.650000000000004e-01	3.210215e-06
4.660000000000004e-01	3.272460e-06
4.670000000000004e-01	3.335673e-06
4.680000000000004e-01	3.399863e-06
4.690000000000004e-01	3.465038e-06
4.700000000000004e-01	3.531206e-06
4.710000000000004e-01	3.598376e-06
4.720000000000004e-01	3.666556e-06
4.730000000000004e-01	3.735753e-06
4.740000000000004e-01	3.805975e-06
4.750000000000004e-01	3.877231e-06
4.760000000000004e-01	3.949528e-06
4.770000000000004e-01	4.022873e-06
4.780000000000004e-01	4.097274e-06
4.790000000000004e-01	4.172738e-06
4.800000000000004e-01	4.249272e-06
4.810000000000004e-01	4.326885e-06
4.820000000000004e-01	4.405582e-06
4.830000000000004e-01	4.485370e-06
4.840000000000004e-01	4.566257e-06
4.850000000000004e-01	4.648249e-06
4.860000000000004e-01	4.731353e-06
4.870000000000004e-01	4.815574e-06
4.880000000000004e-01	4.900920e-06
4.890000000000004e-01	4.987397e-06
4.900000000000004e-01	5.075010e-06
4.910000000000004e-01	5.163767e-06
4.920000000000004e-01	5.253671e-06
4.930000000000004e-01	5.344729e-06
4.940000000000004e-01	5.436947e-06
4.950000000000004e-01	5.530330e-06
4.960000000000004e-01	5.624884e-06
4.970000000000004e-01	5.720613e-06
4.980000000000004e-01	5.817522e-06
4.990000000000004e-01	5.915617e-06
5.000000000000003e-01	6.014902e-06
5.010000000000003e-01	6.115382e-06
5.020000000000003e-01	6.217061e-06
5.030000000000003e-01	6.319944e-06
5.040000000000003e-01	6.424035e-06
5.050000000000003e-01	6.529337e-06
5.060000000000003e-01	6.635856e-06
5.070000000000003e-01	6.743594e-06
5.080000000000003e-01	6.852555e-06
5.090000000000003e-01	6.962743e-06
5.100000000000003e-01	7.074161e-06
5.110000000000003e-01	7.186813e-06
5.120000000000003e-01	7.300701e-06
5.130000000000003e-01	7.415829e-06
5.140000000000003e-01	7.532200e-06
5.150000000000003e-01	7.649815e-06
5.160000000000003e-01	7.768678e-06
5.170000000000003e-01	7.888791e-06
5.180000000000003e-01	8.010156e-06
5.190000000000003e-01	8.132777e-06
5.200000000000004e-01	8.256654e-06
5.210000000000004e-01	8.381789e-06
5.220000000000004e-01	8.508186e-06
5.230000000000004e-01	8.635843e-06
5.240000000000004e-01	8.764765e-06
5.250000000000004e-01	8.894952e-06
5.260000000000004e-01	9.026405e-06
5.270000000000004e-01	9.159125e-06
5.280000000000004e-01	9.293114e-06
5.290000000000004e-01	9.428372e-06
5.300000000000004e-01	9.564901e-06
5.310000000000004e-01	9.702700e-06
5.320000000000004e-01	9.841772e-06
5.330000000000004e-01	9.982115e-06
5.340000000000004e-01	1.012373e-05
5.350000000000004e-01	1.026662e-05
5.360000000000004e-01	1.041078e-05
5.370000000000004e-01	1.055621e-05
5.380000000000004e-01	1.070292e-05
5.390000000000004e-01	1.085090e-05
5.400000000000004e-01	1.100015e-05
5.410000000000004e-01	1.115067e-05
5.420000000000004e-01	1.130247e-05
5.430000000000004e-01	1.145553e-05
5.440000000000004e-01	1.160987e-05
5.450000000000004e-01	1.176547e-05
5.460000000000004e-01	1.192235e-05
5.470000000000004e-01	1.208049e-05
5.480000000000004e-01	1.223989e-05
5.490000000000004e-01	1.240057e-05
5.500000000000004e-01	1.256250e-05
5.510000000000004e-01	1.272570e-05
5.520000000000004e-01	1.289016e-05
5.530000000000004e-01	1.305589e-05
5.540000000000004e-01	1.322287e-05
5.550000000000004e-01	1.339110e-05
5.560000000000004e-01	1.356060e-05
5.570000000000004e-01	1.373134e-05
5.580000000000004e-01	1.390334e-05
5.590000000000004e-01	1.407659e-05
5.600000000000004e-01	1.425108e-05
5.610000000000004e-01	1.442682e-05
5.620000000000004e-01	1.460381e-05
5.630000000000004e-01	1.478204e-05
5.640000000000004e-01	1.496150e-05
5.650000000000004e-01	1.514221e-05
5.660000000000004e-01	1.532415e-05
5.670000000000004e-01	1.550732e-05
5.680000000000004e-01	1.569172e-05
5.690000000000004e-01	1.587735e-05
5.700000000000004e-01	1.606421e-05
